TITLE	
DATA TYPE	FLUORESCENCE SPECTRUM
ORIGIN	JASCO
OWNER	
DATE	20/03/13
TIME	15:01:01
SPECTROMETER/DATA SYSTEM	
LOCALE	1033
RESOLUTION	
DELTAX	0.5
XUNITS	NANOMETERS
YUNITS	INTENSITY
FIRSTX	  415.0000
LASTX	  700.0000
NPOINTS	     571
FIRSTY	     2.47705
MAXY	   476.90765
MINY	     0.61947
XYDATA
415.0000	2.47705
415.5000	2.44144
416.0000	2.50763
416.5000	2.52713
417.0000	2.52749
417.5000	2.54783
418.0000	2.56095
418.5000	2.64853
419.0000	2.78199
419.5000	2.74289
420.0000	2.84322
420.5000	2.86132
421.0000	2.84961
421.5000	2.86059
422.0000	3.01132
422.5000	2.80085
423.0000	2.79524
423.5000	2.82694
424.0000	2.82593
424.5000	2.74935
425.0000	2.71022
425.5000	2.76222
426.0000	2.85458
426.5000	2.79557
427.0000	2.73784
427.5000	2.7876
428.0000	3.04487
428.5000	2.9039
429.0000	2.77819
429.5000	2.73738
430.0000	2.79964
430.5000	2.79909
431.0000	2.77212
431.5000	2.78157
432.0000	2.72238
432.5000	2.65698
433.0000	2.74905
433.5000	2.70902
434.0000	2.74489
434.5000	2.7001
435.0000	2.71733
435.5000	2.7799
436.0000	2.7369
436.5000	2.70011
437.0000	2.65489
437.5000	2.72076
438.0000	2.70293
438.5000	2.74787
439.0000	2.68479
439.5000	2.67967
440.0000	2.80042
440.5000	2.73438
441.0000	2.71987
441.5000	2.68838
442.0000	2.74285
442.5000	2.75956
443.0000	2.71714
443.5000	2.77033
444.0000	2.75973
444.5000	2.68768
445.0000	2.76986
445.5000	2.75855
446.0000	2.83687
446.5000	2.92957
447.0000	3.04062
447.5000	3.16686
448.0000	3.16584
448.5000	3.08078
449.0000	3.03328
449.5000	2.72429
450.0000	2.69734
450.5000	2.65674
451.0000	2.39364
451.5000	2.55881
452.0000	2.26799
452.5000	2.56941
453.0000	2.77898
453.5000	2.85012
454.0000	2.76069
454.5000	2.9982
455.0000	3.16471
455.5000	3.14532
456.0000	3.32201
456.5000	3.34023
457.0000	3.31978
457.5000	3.4112
458.0000	3.51131
458.5000	3.5924
459.0000	3.59193
459.5000	3.54462
460.0000	3.68854
460.5000	3.78241
461.0000	3.64512
461.5000	3.81096
462.0000	3.8476
462.5000	3.84362
463.0000	3.99293
463.5000	4.11637
464.0000	4.20955
464.5000	4.35807
465.0000	4.37655
465.5000	4.458
466.0000	4.67677
466.5000	4.67511
467.0000	4.88615
467.5000	4.63747
468.0000	4.86819
468.5000	5.06826
469.0000	5.14187
469.5000	5.28591
470.0000	5.21877
470.5000	5.43834
471.0000	5.6655
471.5000	5.73548
472.0000	5.88908
472.5000	6.2844
473.0000	6.45318
473.5000	6.65375
474.0000	6.97942
474.5000	7.26465
475.0000	7.62921
475.5000	8.03532
476.0000	8.25481
476.5000	8.65233
477.0000	9.01889
477.5000	9.55691
478.0000	10.128
478.5000	10.5173
479.0000	11.1192
479.5000	11.5427
480.0000	12.0977
480.5000	13.2243
481.0000	14.0622
481.5000	14.7717
482.0000	15.7382
482.5000	16.6644
483.0000	17.547
483.5000	18.6793
484.0000	20.1595
484.5000	21.394
485.0000	22.4972
485.5000	24.3888
486.0000	25.9132
486.5000	27.9739
487.0000	30.2397
487.5000	32.5249
488.0000	34.7501
488.5000	37.1532
489.0000	39.3544
489.5000	42.4453
490.0000	45.3462
490.5000	48.5
491.0000	51.7777
491.5000	55.6645
492.0000	59.8798
492.5000	63.744
493.0000	68.594
493.5000	73.3097
494.0000	77.6263
494.5000	82.5355
495.0000	88.1534
495.5000	94.7561
496.0000	100.204
496.5000	105.948
497.0000	113.35
497.5000	122.597
498.0000	128.927
498.5000	136.107
499.0000	142.971
499.5000	150.625
500.0000	159.459
500.5000	167.404
501.0000	175.799
501.5000	186.459
502.0000	195.44
502.5000	203.887
503.0000	214.006
503.5000	224.229
504.0000	233.503
504.5000	242.16
505.0000	252.523
505.5000	263.01
506.0000	273.059
506.5000	284.112
507.0000	295.533
507.5000	305.001
508.0000	313.578
508.5000	322.982
509.0000	332.624
509.5000	343.503
510.0000	350.82
510.5000	361.245
511.0000	370.01
511.5000	378.507
512.0000	388.158
512.5000	394.973
513.0000	403.931
513.5000	411.592
514.0000	417.195
514.5000	423.877
515.0000	431.985
515.5000	438.577
516.0000	443.513
516.5000	449.489
517.0000	454.721
517.5000	457.018
518.0000	461.243
518.5000	465.167
519.0000	467.923
519.5000	469.512
520.0000	472.537
520.5000	474.88
521.0000	475.389
521.5000	476.864
522.0000	476.908
522.5000	476.617
523.0000	476.533
523.5000	475.435
524.0000	474.095
524.5000	472.434
525.0000	471.176
525.5000	468.3
526.0000	466.799
526.5000	462.721
527.0000	459.97
527.5000	457.449
528.0000	452.231
528.5000	448.5
529.0000	444.565
529.5000	441.44
530.0000	435.924
530.5000	430.132
531.0000	424.326
531.5000	418.548
532.0000	412.92
532.5000	407.721
533.0000	401.463
533.5000	394.736
534.0000	386.593
534.5000	379.84
535.0000	372.803
535.5000	364.188
536.0000	356.068
536.5000	349.111
537.0000	342.479
537.5000	332.477
538.0000	324.851
538.5000	317.578
539.0000	307.805
539.5000	297.939
540.0000	289.182
540.5000	282.172
541.0000	273.595
541.5000	264.943
542.0000	256.469
542.5000	247.561
543.0000	238.415
543.5000	229.883
544.0000	221.813
544.5000	213.827
545.0000	204.566
545.5000	197.054
546.0000	188.943
546.5000	181.978
547.0000	175.243
547.5000	165.761
548.0000	160.758
548.5000	154.398
549.0000	145.862
549.5000	139.363
550.0000	134.011
550.5000	128.092
551.0000	122.318
551.5000	116.978
552.0000	111.999
552.5000	107.08
553.0000	102.594
553.5000	97.4212
554.0000	92.6627
554.5000	88.2658
555.0000	83.6977
555.5000	80.3865
556.0000	77.424
556.5000	73.4995
557.0000	69.2014
557.5000	67.1078
558.0000	63.7406
558.5000	59.8776
559.0000	57.9926
559.5000	55.4726
560.0000	53.0605
560.5000	50.8272
561.0000	48.1604
561.5000	46.4045
562.0000	44.6676
562.5000	42.6741
563.0000	40.3942
563.5000	38.9885
564.0000	37.5925
564.5000	36.1002
565.0000	33.8366
565.5000	32.7064
566.0000	31.6905
566.5000	30.415
567.0000	29.7438
567.5000	28.4469
568.0000	27.5372
568.5000	26.4749
569.0000	25.1932
569.5000	24.6007
570.0000	23.5354
570.5000	22.7058
571.0000	22.1706
571.5000	21.2928
572.0000	20.6316
572.5000	20.1099
573.0000	19.6991
573.5000	19.2385
574.0000	18.5372
574.5000	18.1191
575.0000	17.4101
575.5000	16.9638
576.0000	16.4592
576.5000	16.289
577.0000	15.8089
577.5000	15.5154
578.0000	14.9236
578.5000	14.5699
579.0000	14.2889
579.5000	13.8722
580.0000	13.6837
580.5000	13.4027
581.0000	13.3282
581.5000	13.1413
582.0000	12.7857
582.5000	12.3546
583.0000	12.312
583.5000	12.1389
584.0000	11.9259
584.5000	11.8645
585.0000	11.5444
585.5000	11.3359
586.0000	11.0714
586.5000	10.9589
587.0000	10.7114
587.5000	10.5073
588.0000	10.272
588.5000	10.1962
589.0000	10.0405
589.5000	10.0396
590.0000	9.93552
590.5000	9.80326
591.0000	9.70875
591.5000	9.58997
592.0000	9.35599
592.5000	9.25581
593.0000	9.10603
593.5000	8.90479
594.0000	8.93456
594.5000	8.69902
595.0000	8.78677
595.5000	8.42999
596.0000	8.47833
596.5000	8.24768
597.0000	8.11312
597.5000	8.20087
598.0000	8.07654
598.5000	7.82545
599.0000	7.72982
599.5000	7.7536
600.0000	7.72548
600.5000	7.67879
601.0000	7.67678
601.5000	7.60131
602.0000	7.28736
602.5000	7.13307
603.0000	7.38224
603.5000	7.18074
604.0000	7.2408
604.5000	7.17161
605.0000	6.95744
605.5000	6.8323
606.0000	6.90617
606.5000	6.75638
607.0000	6.80941
607.5000	6.71508
608.0000	6.56404
608.5000	6.58526
609.0000	6.42709
609.5000	6.28685
610.0000	6.32333
610.5000	6.34734
611.0000	6.18981
611.5000	6.21741
612.0000	6.11838
612.5000	6.06267
613.0000	5.95769
613.5000	5.92096
614.0000	5.79855
614.5000	5.85827
615.0000	5.69549
615.5000	5.57514
616.0000	5.51433
616.5000	5.52503
617.0000	5.49907
617.5000	5.65972
618.0000	5.33581
618.5000	5.21187
619.0000	5.24272
619.5000	5.23471
620.0000	5.12298
620.5000	5.18064
621.0000	5.16702
621.5000	5.07341
622.0000	5.02418
622.5000	4.94805
623.0000	4.81168
623.5000	4.8393
624.0000	4.71943
624.5000	4.93032
625.0000	5.00284
625.5000	4.83459
626.0000	4.81536
626.5000	4.56629
627.0000	4.57015
627.5000	4.49461
628.0000	4.41116
628.5000	4.36611
629.0000	4.3837
629.5000	4.44681
630.0000	4.34525
630.5000	4.2452
631.0000	4.0667
631.5000	4.24646
632.0000	4.0954
632.5000	4.06329
633.0000	3.83128
633.5000	4.03246
634.0000	3.99571
634.5000	3.85348
635.0000	4.06854
635.5000	3.80712
636.0000	3.58774
636.5000	3.59081
637.0000	3.66003
637.5000	3.54536
638.0000	3.53415
638.5000	3.60553
639.0000	3.57936
639.5000	3.42536
640.0000	3.36844
640.5000	3.37549
641.0000	3.21708
641.5000	3.32829
642.0000	3.27053
642.5000	3.25299
643.0000	3.11707
643.5000	3.19308
644.0000	3.17999
644.5000	3.1413
645.0000	3.23049
645.5000	2.921
646.0000	2.92054
646.5000	2.80183
647.0000	2.89352
647.5000	2.93684
648.0000	2.77178
648.5000	2.74687
649.0000	2.70025
649.5000	2.6741
650.0000	2.6398
650.5000	2.63758
651.0000	2.5656
651.5000	2.59277
652.0000	2.4915
652.5000	2.55179
653.0000	2.55688
653.5000	2.49801
654.0000	2.53692
654.5000	2.50152
655.0000	2.32874
655.5000	2.21794
656.0000	2.24545
656.5000	2.28272
657.0000	2.29717
657.5000	2.25896
658.0000	2.17604
658.5000	2.08711
659.0000	2.11684
659.5000	2.08306
660.0000	1.96084
660.5000	1.99192
661.0000	2.0129
661.5000	1.98298
662.0000	1.90875
662.5000	1.90082
663.0000	1.79938
663.5000	1.91273
664.0000	1.94125
664.5000	1.87773
665.0000	1.72506
665.5000	1.68057
666.0000	1.81038
666.5000	1.7291
667.0000	1.62018
667.5000	1.6684
668.0000	1.71992
668.5000	1.72145
669.0000	1.67612
669.5000	1.66152
670.0000	1.70446
670.5000	1.6167
671.0000	1.62527
671.5000	1.48581
672.0000	1.37352
672.5000	1.52465
673.0000	1.43959
673.5000	1.40602
674.0000	1.43983
674.5000	1.38604
675.0000	1.42314
675.5000	1.42126
676.0000	1.32415
676.5000	1.304
677.0000	1.33106
677.5000	1.29633
678.0000	1.26875
678.5000	1.24474
679.0000	1.10449
679.5000	1.19769
680.0000	1.2168
680.5000	1.20271
681.0000	1.2178
681.5000	1.15646
682.0000	1.06573
682.5000	1.04325
683.0000	1.0919
683.5000	1.05191
684.0000	1.02198
684.5000	1.04982
685.0000	0.975415
685.5000	1.01909
686.0000	0.955823
686.5000	0.913516
687.0000	0.893124
687.5000	0.846434
688.0000	0.832363
688.5000	0.76834
689.0000	0.804361
689.5000	0.822678
690.0000	0.742873
690.5000	0.753773
691.0000	0.75218
691.5000	0.705223
692.0000	0.718654
692.5000	0.720129
693.0000	0.732899
693.5000	0.755157
694.0000	0.687936
694.5000	0.709513
695.0000	0.748611
695.5000	0.747877
696.0000	0.718709
696.5000	0.665726
697.0000	0.700207
697.5000	0.688749
698.0000	0.619474
698.5000	0.68244
699.0000	0.669363
699.5000	0.666576
700.0000	0.689707

##### Extended Information
[Comments]
Sample name
Comment
User
Division
Company	UMBC

[Detailed Information]
Creation date	3/13/2020 3:01 PM

Data array type	Linear data array
Horizontal axis	Wavelength [nm]
Vertical axis	Int.
Start	415 nm
End	700 nm
Data interval	0.5 nm
Data points	571     

[Measurement Information]
Model name	FP-8200
Serial No.	C029561448
  Ex filter holder	None
  Em filter holder	None

Accessory	STR-811
Accessory S/N	A002761513

Measurement date	3/13/2020 3:01 PM

Mode	Emission
Ex bandwidth	2.5 nm
Em bandwidth	2.5 nm
Response	0.2 sec
Sensitivity	Medium
Measurement range	415 - 700 nm
Data interval	0.5 nm
Ex wavelength	400.0 nm
Scan speed	200 nm/min
Auto gain	Off
Light source	Xe lamp
Filter	Not used
Blank correction	On

