TITLE	
DATA TYPE	FLUORESCENCE SPECTRUM
ORIGIN	JASCO
OWNER	
DATE	20/03/13
TIME	14:10:07
SPECTROMETER/DATA SYSTEM	
LOCALE	1033
RESOLUTION	
DELTAX	0.5
XUNITS	NANOMETERS
YUNITS	INTENSITY
FIRSTX	  415.0000
LASTX	  700.0000
NPOINTS	     571
FIRSTY	    12.65957
MAXY	   237.32716
MINY	     0.75719
XYDATA
415.0000	12.6596
415.5000	12.9855
416.0000	13.5204
416.5000	14.177
417.0000	14.859
417.5000	15.2675
418.0000	15.7026
418.5000	16.0639
419.0000	16.4153
419.5000	17.0003
420.0000	17.4673
420.5000	17.8901
421.0000	18.4479
421.5000	18.5956
422.0000	18.853
422.5000	19.268
423.0000	19.7342
423.5000	19.9418
424.0000	20.2689
424.5000	20.5493
425.0000	20.7022
425.5000	21.0548
426.0000	21.3773
426.5000	21.4824
427.0000	22.0675
427.5000	22.2958
428.0000	22.175
428.5000	22.4711
429.0000	22.847
429.5000	22.9973
430.0000	23.5135
430.5000	23.5497
431.0000	23.516
431.5000	23.8651
432.0000	24.6823
432.5000	24.3389
433.0000	24.7292
433.5000	25.2699
434.0000	25.4826
434.5000	26.0688
435.0000	26.3709
435.5000	26.918
436.0000	27.2754
436.5000	27.6671
437.0000	28.0392
437.5000	28.9019
438.0000	29.2879
438.5000	29.8795
439.0000	30.5792
439.5000	31.2197
440.0000	32.1446
440.5000	32.9883
441.0000	33.5016
441.5000	33.7868
442.0000	34.6654
442.5000	35.8783
443.0000	37.0359
443.5000	37.7782
444.0000	38.5025
444.5000	39.7098
445.0000	40.3855
445.5000	41.1955
446.0000	42.3324
446.5000	43.0871
447.0000	44.5918
447.5000	45.6249
448.0000	46.8987
448.5000	48.1959
449.0000	49.2188
449.5000	50.9185
450.0000	51.3461
450.5000	53.2011
451.0000	54.7873
451.5000	55.5452
452.0000	57.1564
452.5000	59.5797
453.0000	60.8967
453.5000	63.2202
454.0000	65.4502
454.5000	67.3721
455.0000	69.2607
455.5000	71.5302
456.0000	73.7856
456.5000	76.196
457.0000	78.9261
457.5000	80.88
458.0000	84.2617
458.5000	87.6391
459.0000	90.6994
459.5000	93.1307
460.0000	95.9792
460.5000	99.3533
461.0000	102.332
461.5000	104.915
462.0000	108.087
462.5000	111.752
463.0000	114.524
463.5000	118.763
464.0000	122.678
464.5000	125.656
465.0000	128.742
465.5000	131.955
466.0000	135.704
466.5000	139.418
467.0000	143.8
467.5000	146.597
468.0000	150.935
468.5000	154.665
469.0000	157.352
469.5000	160.012
470.0000	164.958
470.5000	169.321
471.0000	171.671
471.5000	174.761
472.0000	177.468
472.5000	181.417
473.0000	184.965
473.5000	188.653
474.0000	191.633
474.5000	194.625
475.0000	197.33
475.5000	200.833
476.0000	204.016
476.5000	206.758
477.0000	209.055
477.5000	211.498
478.0000	215.878
478.5000	218.855
479.0000	220.264
479.5000	223.001
480.0000	225.435
480.5000	226.691
481.0000	227.981
481.5000	229.466
482.0000	230.909
482.5000	231.802
483.0000	234.198
483.5000	234.408
484.0000	234.724
484.5000	237.327
485.0000	235.199
485.5000	235.988
486.0000	235.081
486.5000	234.609
487.0000	233.102
487.5000	231.186
488.0000	229.485
488.5000	227.858
489.0000	226.493
489.5000	224.286
490.0000	221.584
490.5000	219.118
491.0000	216.985
491.5000	214.115
492.0000	210.023
492.5000	207.118
493.0000	203.43
493.5000	198.987
494.0000	196.511
494.5000	193.059
495.0000	189.192
495.5000	184.654
496.0000	182.226
496.5000	176.354
497.0000	172.129
497.5000	168.707
498.0000	164.061
498.5000	160.52
499.0000	156.037
499.5000	152.523
500.0000	147.832
500.5000	144.161
501.0000	140.555
501.5000	135.972
502.0000	133.251
502.5000	129.513
503.0000	126.246
503.5000	122.785
504.0000	120.183
504.5000	117.091
505.0000	113.914
505.5000	110.102
506.0000	106.455
506.5000	102.772
507.0000	99.423
507.5000	97.2099
508.0000	94.4454
508.5000	92.3831
509.0000	89.1953
509.5000	86.8149
510.0000	84.1514
510.5000	81.3395
511.0000	79.549
511.5000	77.4107
512.0000	75.2839
512.5000	72.8247
513.0000	70.9796
513.5000	68.8994
514.0000	66.3608
514.5000	65.0484
515.0000	63.3354
515.5000	61.1053
516.0000	59.7169
516.5000	57.4468
517.0000	55.7308
517.5000	54.5263
518.0000	52.8339
518.5000	51.3282
519.0000	50.2601
519.5000	49.2147
520.0000	47.8856
520.5000	46.502
521.0000	45.6471
521.5000	44.2998
522.0000	43.161
522.5000	42.7192
523.0000	41.6195
523.5000	40.6509
524.0000	40.1901
524.5000	39.3735
525.0000	39.0711
525.5000	38.3059
526.0000	37.1254
526.5000	36.9176
527.0000	36.5687
527.5000	36.2425
528.0000	35.7479
528.5000	35.2976
529.0000	34.8518
529.5000	34.4729
530.0000	33.978
530.5000	33.7498
531.0000	33.4042
531.5000	33.1271
532.0000	33.014
532.5000	32.9369
533.0000	32.6968
533.5000	32.6114
534.0000	32.3001
534.5000	31.9131
535.0000	31.7678
535.5000	31.4132
536.0000	31.3159
536.5000	31.2918
537.0000	30.7845
537.5000	31.0484
538.0000	30.9426
538.5000	30.7986
539.0000	30.7272
539.5000	30.0362
540.0000	30.0075
540.5000	30.3545
541.0000	30.4473
541.5000	30.1049
542.0000	29.9656
542.5000	30.0447
543.0000	29.7897
543.5000	29.5872
544.0000	29.4585
544.5000	29.5905
545.0000	29.9687
545.5000	29.8356
546.0000	29.0746
546.5000	29.4933
547.0000	29.3025
547.5000	29.5837
548.0000	29.3478
548.5000	29.4967
549.0000	29.1057
549.5000	28.9513
550.0000	29.0713
550.5000	28.9934
551.0000	28.508
551.5000	28.453
552.0000	28.5723
552.5000	28.7388
553.0000	28.6269
553.5000	28.3678
554.0000	28.0239
554.5000	28.3425
555.0000	28.1525
555.5000	28.4121
556.0000	28.6225
556.5000	27.5964
557.0000	27.7556
557.5000	27.9443
558.0000	27.7047
558.5000	27.471
559.0000	27.495
559.5000	27.612
560.0000	27.3395
560.5000	27.17
561.0000	27.2736
561.5000	26.8982
562.0000	26.5152
562.5000	26.3788
563.0000	26.5228
563.5000	26.7394
564.0000	26.7599
564.5000	26.4519
565.0000	26.27
565.5000	26.2665
566.0000	26.2333
566.5000	25.8878
567.0000	25.5358
567.5000	25.2441
568.0000	25.9097
568.5000	25.4849
569.0000	24.7853
569.5000	24.8574
570.0000	24.9636
570.5000	25.0138
571.0000	24.8604
571.5000	24.6515
572.0000	24.4254
572.5000	24.214
573.0000	24.2957
573.5000	24.058
574.0000	23.9641
574.5000	23.5821
575.0000	23.8548
575.5000	23.2684
576.0000	23.112
576.5000	23.4943
577.0000	23.3626
577.5000	23.2226
578.0000	23.1229
578.5000	22.5416
579.0000	22.5371
579.5000	22.5252
580.0000	22.5643
580.5000	22.3955
581.0000	22.3288
581.5000	22.1254
582.0000	22.072
582.5000	21.9638
583.0000	21.7665
583.5000	21.7304
584.0000	21.7344
584.5000	21.5459
585.0000	21.5145
585.5000	20.9907
586.0000	21.2091
586.5000	21.1647
587.0000	21.0814
587.5000	21.193
588.0000	20.9652
588.5000	20.4112
589.0000	20.5441
589.5000	20.643
590.0000	20.5548
590.5000	20.202
591.0000	20.0187
591.5000	19.8478
592.0000	19.6945
592.5000	19.6335
593.0000	19.6419
593.5000	19.3572
594.0000	19.2075
594.5000	19.1181
595.0000	19.1909
595.5000	19.2005
596.0000	19.1634
596.5000	18.6149
597.0000	18.6306
597.5000	18.5848
598.0000	18.2002
598.5000	18.0362
599.0000	18.1609
599.5000	18.1996
600.0000	17.9303
600.5000	17.7545
601.0000	17.6408
601.5000	17.5043
602.0000	17.5896
602.5000	17.1561
603.0000	17.3513
603.5000	16.9527
604.0000	16.8006
604.5000	16.5706
605.0000	16.712
605.5000	16.4127
606.0000	16.0901
606.5000	15.9065
607.0000	15.9195
607.5000	15.9317
608.0000	15.8138
608.5000	15.8779
609.0000	15.3339
609.5000	15.276
610.0000	15.0428
610.5000	15.0281
611.0000	14.5219
611.5000	15.0185
612.0000	14.7525
612.5000	14.6082
613.0000	14.6635
613.5000	14.7292
614.0000	14.4357
614.5000	13.9661
615.0000	13.743
615.5000	13.7559
616.0000	13.5686
616.5000	13.5417
617.0000	13.2806
617.5000	13.2128
618.0000	12.9202
618.5000	12.9409
619.0000	12.5941
619.5000	12.862
620.0000	12.5639
620.5000	12.5235
621.0000	12.4268
621.5000	12.1209
622.0000	11.8682
622.5000	11.7761
623.0000	11.7696
623.5000	11.7924
624.0000	11.7294
624.5000	11.6707
625.0000	11.3687
625.5000	11.1605
626.0000	10.7427
626.5000	10.9464
627.0000	10.6973
627.5000	10.5449
628.0000	10.6434
628.5000	10.4096
629.0000	10.233
629.5000	10.1983
630.0000	10.0518
630.5000	9.86773
631.0000	9.54259
631.5000	9.53352
632.0000	9.49375
632.5000	9.42477
633.0000	9.20057
633.5000	9.17819
634.0000	9.10887
634.5000	8.84432
635.0000	8.73408
635.5000	8.66828
636.0000	8.55816
636.5000	8.33927
637.0000	8.34479
637.5000	8.26329
638.0000	8.11173
638.5000	7.9235
639.0000	8.01503
639.5000	7.50716
640.0000	7.56959
640.5000	7.47453
641.0000	7.59855
641.5000	7.29769
642.0000	7.24818
642.5000	7.21551
643.0000	7.07469
643.5000	6.81293
644.0000	6.64706
644.5000	6.7094
645.0000	6.59704
645.5000	6.41185
646.0000	6.31745
646.5000	6.39356
647.0000	6.20533
647.5000	5.94101
648.0000	5.91816
648.5000	5.91247
649.0000	5.67522
649.5000	5.68568
650.0000	5.58609
650.5000	5.37373
651.0000	5.27438
651.5000	5.32873
652.0000	5.22034
652.5000	4.94666
653.0000	5.04068
653.5000	5.08338
654.0000	4.92528
654.5000	4.68498
655.0000	4.7649
655.5000	4.68473
656.0000	4.58844
656.5000	4.55956
657.0000	4.47712
657.5000	4.45591
658.0000	4.30371
658.5000	4.2591
659.0000	4.23989
659.5000	4.08955
660.0000	4.09793
660.5000	3.97308
661.0000	3.99846
661.5000	3.79603
662.0000	3.69112
662.5000	3.61678
663.0000	3.56337
663.5000	3.44555
664.0000	3.27103
664.5000	3.38778
665.0000	3.2829
665.5000	3.46574
666.0000	3.25376
666.5000	3.13887
667.0000	2.94505
667.5000	2.92703
668.0000	2.99497
668.5000	2.94902
669.0000	2.86215
669.5000	2.79383
670.0000	2.71216
670.5000	2.71183
671.0000	2.75972
671.5000	2.74106
672.0000	2.60798
672.5000	2.48562
673.0000	2.35015
673.5000	2.48942
674.0000	2.45955
674.5000	2.31106
675.0000	2.28792
675.5000	2.21611
676.0000	2.16107
676.5000	2.07957
677.0000	2.10545
677.5000	1.92791
678.0000	2.01639
678.5000	2.03754
679.0000	1.94145
679.5000	1.87271
680.0000	1.84111
680.5000	1.84025
681.0000	1.83242
681.5000	1.72583
682.0000	1.65105
682.5000	1.61415
683.0000	1.66798
683.5000	1.74982
684.0000	1.48319
684.5000	1.52303
685.0000	1.50836
685.5000	1.49175
686.0000	1.35592
686.5000	1.27008
687.0000	1.23652
687.5000	1.25434
688.0000	1.16862
688.5000	1.13269
689.0000	1.1432
689.5000	1.07489
690.0000	1.10044
690.5000	0.971162
691.0000	0.928564
691.5000	0.900741
692.0000	0.918111
692.5000	0.901443
693.0000	0.811759
693.5000	0.887331
694.0000	0.828885
694.5000	0.778563
695.0000	0.947361
695.5000	0.858917
696.0000	0.81188
696.5000	0.785468
697.0000	0.780005
697.5000	0.821577
698.0000	0.83461
698.5000	0.790942
699.0000	0.769629
699.5000	0.757192
700.0000	0.808205

##### Extended Information
[Comments]
Sample name
Comment
User
Division
Company	UMBC

[Detailed Information]
Creation date	3/13/2020 2:10 PM

Data array type	Linear data array
Horizontal axis	Wavelength [nm]
Vertical axis	Int.
Start	415 nm
End	700 nm
Data interval	0.5 nm
Data points	571     

[Measurement Information]
Model name	FP-8200
Serial No.	C029561448
  Ex filter holder	None
  Em filter holder	None

Accessory	STR-811
Accessory S/N	A002761513

Measurement date	3/13/2020 2:10 PM

Mode	Emission
Ex bandwidth	2.5 nm
Em bandwidth	2.5 nm
Response	0.2 sec
Sensitivity	Medium
Measurement range	415 - 700 nm
Data interval	0.5 nm
Ex wavelength	400.0 nm
Scan speed	200 nm/min
Auto gain	Off
Light source	Xe lamp
Filter	Not used
Blank correction	On

