TITLE	
DATA TYPE	FLUORESCENCE SPECTRUM
ORIGIN	JASCO
OWNER	
DATE	20/03/13
TIME	14:32:09
SPECTROMETER/DATA SYSTEM	
LOCALE	1033
RESOLUTION	
DELTAX	0.5
XUNITS	NANOMETERS
YUNITS	INTENSITY
FIRSTX	  415.0000
LASTX	  700.0000
NPOINTS	     571
FIRSTY	     4.41180
MAXY	   461.75766
MINY	     0.78500
XYDATA
415.0000	4.4118
415.5000	4.5597
416.0000	4.69191
416.5000	4.81693
417.0000	4.94857
417.5000	5.08768
418.0000	5.18506
418.5000	5.10347
419.0000	5.24311
419.5000	5.36753
420.0000	5.39122
420.5000	5.5156
421.0000	5.58608
421.5000	5.65437
422.0000	5.65529
422.5000	5.62672
423.0000	5.67043
423.5000	5.88869
424.0000	5.82519
424.5000	5.66606
425.0000	5.72198
425.5000	5.75471
426.0000	5.80242
426.5000	5.80874
427.0000	5.78242
427.5000	5.91077
428.0000	5.83593
428.5000	5.7524
429.0000	5.95102
429.5000	5.96887
430.0000	5.87058
430.5000	5.90208
431.0000	5.90831
431.5000	5.95798
432.0000	6.17156
432.5000	5.97034
433.0000	6.02848
433.5000	5.87969
434.0000	6.03261
434.5000	6.07844
435.0000	5.93901
435.5000	6.00473
436.0000	6.01933
436.5000	6.14715
437.0000	6.12314
437.5000	6.38906
438.0000	6.44511
438.5000	6.51073
439.0000	6.63973
439.5000	6.78724
440.0000	6.86933
440.5000	6.78241
441.0000	6.76351
441.5000	6.88708
442.0000	7.09505
442.5000	7.17147
443.0000	7.24742
443.5000	7.44849
444.0000	7.62144
444.5000	7.53504
445.0000	7.73256
445.5000	7.90844
446.0000	7.96574
446.5000	8.24842
447.0000	8.39067
447.5000	9.01025
448.0000	8.76878
448.5000	8.83085
449.0000	9.18678
449.5000	8.72015
450.0000	9.04547
450.5000	8.97388
451.0000	9.1194
451.5000	9.29073
452.0000	9.16565
452.5000	9.71796
453.0000	9.89328
453.5000	10.0218
454.0000	10.5239
454.5000	10.9114
455.0000	11.3768
455.5000	11.3013
456.0000	11.8354
456.5000	12.036
457.0000	12.4014
457.5000	12.7298
458.0000	13.2496
458.5000	13.6553
459.0000	13.8534
459.5000	14.3345
460.0000	14.772
460.5000	15.149
461.0000	15.6951
461.5000	16.1262
462.0000	16.7106
462.5000	17.1298
463.0000	17.6958
463.5000	18.2731
464.0000	18.5924
464.5000	19.7191
465.0000	20.2141
465.5000	20.9751
466.0000	21.3463
466.5000	22.8862
467.0000	23.6148
467.5000	24.0868
468.0000	25.1696
468.5000	26.3113
469.0000	27.1727
469.5000	28.7097
470.0000	29.4726
470.5000	30.7194
471.0000	32.0897
471.5000	33.1861
472.0000	35.0556
472.5000	36.381
473.0000	38.3848
473.5000	40.7977
474.0000	42.8602
474.5000	44.9461
475.0000	46.9383
475.5000	48.9697
476.0000	51.9425
476.5000	54.9645
477.0000	57.7301
477.5000	61.1284
478.0000	64.7305
478.5000	68.0294
479.0000	72.1702
479.5000	76.0533
480.0000	79.8836
480.5000	84.4335
481.0000	88.6637
481.5000	93.7414
482.0000	99.0216
482.5000	103.95
483.0000	109.26
483.5000	116.286
484.0000	121.213
484.5000	127.462
485.0000	133.713
485.5000	141.03
486.0000	148.719
486.5000	153.737
487.0000	162.472
487.5000	170.365
488.0000	177.424
488.5000	184.631
489.0000	193.613
489.5000	201.883
490.0000	210.93
490.5000	219.521
491.0000	229.29
491.5000	238.39
492.0000	246.922
492.5000	256.49
493.0000	266.23
493.5000	276.702
494.0000	286.41
494.5000	296.254
495.0000	305.953
495.5000	315.655
496.0000	324.417
496.5000	334.724
497.0000	347.252
497.5000	358.362
498.0000	365.949
498.5000	372.973
499.0000	384.118
499.5000	393.483
500.0000	398.534
500.5000	409.465
501.0000	416.579
501.5000	423.393
502.0000	430.587
502.5000	436.016
503.0000	439.604
503.5000	445.621
504.0000	450.136
504.5000	454.206
505.0000	457.149
505.5000	457.955
506.0000	459.321
506.5000	461.758
507.0000	461.011
507.5000	460.254
508.0000	459.361
508.5000	457.712
509.0000	453.877
509.5000	450.395
510.0000	443.808
510.5000	441.593
511.0000	434.605
511.5000	431.394
512.0000	422.46
512.5000	418.221
513.0000	409.474
513.5000	402.43
514.0000	393.354
514.5000	384.309
515.0000	377.634
515.5000	367.729
516.0000	357.507
516.5000	346.429
517.0000	336.795
517.5000	329.241
518.0000	320.871
518.5000	310.496
519.0000	300.553
519.5000	290.21
520.0000	281.705
520.5000	271.272
521.0000	262.352
521.5000	254.049
522.0000	243.496
522.5000	234.691
523.0000	227.719
523.5000	218.154
524.0000	209.812
524.5000	201.479
525.0000	193.851
525.5000	185.814
526.0000	178.192
526.5000	169.202
527.0000	162.262
527.5000	156.178
528.0000	149.547
528.5000	143.259
529.0000	137.085
529.5000	131.04
530.0000	125.33
530.5000	119.158
531.0000	113.944
531.5000	109.271
532.0000	104.037
532.5000	99.5444
533.0000	95.9746
533.5000	91.8771
534.0000	87.2143
534.5000	83.6757
535.0000	79.8527
535.5000	76.3727
536.0000	72.4898
536.5000	69.3982
537.0000	67.1611
537.5000	64.0796
538.0000	61.4865
538.5000	59.2664
539.0000	56.4722
539.5000	54.2508
540.0000	51.8359
540.5000	50.0165
541.0000	47.9896
541.5000	46.3389
542.0000	44.9046
542.5000	43.3061
543.0000	41.491
543.5000	39.9219
544.0000	38.602
544.5000	37.3652
545.0000	36.1324
545.5000	34.8193
546.0000	33.8546
546.5000	32.9417
547.0000	31.6786
547.5000	30.97
548.0000	29.8495
548.5000	29.0156
549.0000	28.7237
549.5000	27.5572
550.0000	27.2426
550.5000	26.4373
551.0000	26.1223
551.5000	25.398
552.0000	24.9804
552.5000	24.5656
553.0000	23.8589
553.5000	23.0732
554.0000	22.7146
554.5000	22.26
555.0000	22.0946
555.5000	21.4147
556.0000	20.9266
556.5000	21.0431
557.0000	20.5841
557.5000	19.9412
558.0000	20.1012
558.5000	19.3611
559.0000	19.2799
559.5000	18.8903
560.0000	18.7507
560.5000	18.5641
561.0000	18.2049
561.5000	18.1171
562.0000	17.9173
562.5000	17.822
563.0000	17.531
563.5000	17.3064
564.0000	16.9907
564.5000	16.831
565.0000	16.6635
565.5000	16.4142
566.0000	16.1721
566.5000	16.1728
567.0000	16.234
567.5000	15.8381
568.0000	15.8937
568.5000	15.6682
569.0000	15.5229
569.5000	15.289
570.0000	15.0919
570.5000	15.0658
571.0000	15.021
571.5000	14.7285
572.0000	14.6092
572.5000	14.4466
573.0000	14.4607
573.5000	14.1911
574.0000	14.0564
574.5000	14.2307
575.0000	14.1484
575.5000	13.8616
576.0000	13.9793
576.5000	13.4323
577.0000	13.8037
577.5000	13.2267
578.0000	13.3837
578.5000	13.4947
579.0000	13.3863
579.5000	13.3792
580.0000	13.4489
580.5000	13.1459
581.0000	13.2234
581.5000	13.0512
582.0000	13.0047
582.5000	13.1016
583.0000	12.9
583.5000	12.6284
584.0000	12.6844
584.5000	12.2956
585.0000	12.2488
585.5000	12.312
586.0000	12.3567
586.5000	12.4524
587.0000	12.2696
587.5000	12.2054
588.0000	11.9242
588.5000	12.077
589.0000	12.2748
589.5000	12.0637
590.0000	11.9579
590.5000	11.9835
591.0000	11.8607
591.5000	11.708
592.0000	11.6382
592.5000	11.5586
593.0000	11.6147
593.5000	11.5409
594.0000	11.3634
594.5000	11.6513
595.0000	11.172
595.5000	10.9819
596.0000	11.1526
596.5000	11.1246
597.0000	11.057
597.5000	10.8619
598.0000	10.8526
598.5000	10.9071
599.0000	10.7026
599.5000	10.8455
600.0000	10.7101
600.5000	10.6752
601.0000	10.4467
601.5000	10.4386
602.0000	10.3781
602.5000	10.5013
603.0000	10.4023
603.5000	10.1989
604.0000	10.2414
604.5000	10.1951
605.0000	9.895
605.5000	9.89382
606.0000	9.91432
606.5000	9.78046
607.0000	9.58343
607.5000	9.61026
608.0000	9.54766
608.5000	9.5003
609.0000	9.80872
609.5000	9.36644
610.0000	9.51796
610.5000	9.48918
611.0000	9.16935
611.5000	9.41697
612.0000	9.19942
612.5000	9.11427
613.0000	9.06735
613.5000	9.04824
614.0000	9.07343
614.5000	9.01751
615.0000	8.66721
615.5000	8.49528
616.0000	8.56964
616.5000	8.56731
617.0000	8.23335
617.5000	8.37935
618.0000	8.42175
618.5000	8.03631
619.0000	8.18636
619.5000	8.21774
620.0000	8.066
620.5000	7.99311
621.0000	7.95733
621.5000	7.83945
622.0000	7.72977
622.5000	7.65959
623.0000	7.61464
623.5000	7.49042
624.0000	7.4997
624.5000	7.54397
625.0000	7.27134
625.5000	7.34775
626.0000	7.26266
626.5000	7.19497
627.0000	7.032
627.5000	7.09099
628.0000	7.06911
628.5000	6.91997
629.0000	6.81539
629.5000	6.69836
630.0000	6.7513
630.5000	6.68734
631.0000	6.63088
631.5000	6.40029
632.0000	6.43094
632.5000	6.22617
633.0000	6.09871
633.5000	6.33613
634.0000	6.39924
634.5000	6.12209
635.0000	6.05545
635.5000	6.07858
636.0000	6.0111
636.5000	5.84113
637.0000	5.7642
637.5000	5.86765
638.0000	5.64806
638.5000	5.75262
639.0000	5.50032
639.5000	5.39236
640.0000	5.34813
640.5000	5.36725
641.0000	5.3548
641.5000	5.19379
642.0000	5.06519
642.5000	4.97513
643.0000	4.9591
643.5000	4.87939
644.0000	4.99834
644.5000	4.99627
645.0000	4.72305
645.5000	4.5909
646.0000	4.64388
646.5000	4.55215
647.0000	4.50762
647.5000	4.31756
648.0000	4.3919
648.5000	4.24161
649.0000	4.16369
649.5000	4.25648
650.0000	4.2171
650.5000	4.11273
651.0000	4.02524
651.5000	3.87696
652.0000	3.83649
652.5000	3.91982
653.0000	3.81591
653.5000	3.90775
654.0000	3.60133
654.5000	3.60639
655.0000	3.63743
655.5000	3.60387
656.0000	3.51663
656.5000	3.39895
657.0000	3.32753
657.5000	3.21705
658.0000	3.26501
658.5000	3.17628
659.0000	3.12415
659.5000	3.24272
660.0000	3.09303
660.5000	3.11263
661.0000	3.05403
661.5000	2.93365
662.0000	2.98399
662.5000	2.97382
663.0000	2.828
663.5000	2.81784
664.0000	2.8331
664.5000	2.81604
665.0000	2.623
665.5000	2.71302
666.0000	2.63403
666.5000	2.56537
667.0000	2.53095
667.5000	2.53772
668.0000	2.44437
668.5000	2.47854
669.0000	2.36533
669.5000	2.33743
670.0000	2.1889
670.5000	2.19549
671.0000	2.13488
671.5000	2.2063
672.0000	2.21162
672.5000	2.10414
673.0000	2.03645
673.5000	1.9707
674.0000	1.97393
674.5000	1.94771
675.0000	1.90132
675.5000	1.89428
676.0000	1.84655
676.5000	1.74713
677.0000	1.6676
677.5000	1.69683
678.0000	1.74705
678.5000	1.73733
679.0000	1.60311
679.5000	1.66189
680.0000	1.69014
680.5000	1.6043
681.0000	1.58957
681.5000	1.54629
682.0000	1.55602
682.5000	1.47232
683.0000	1.45489
683.5000	1.52666
684.0000	1.34599
684.5000	1.37034
685.0000	1.31346
685.5000	1.31749
686.0000	1.22239
686.5000	1.1794
687.0000	1.19089
687.5000	1.15081
688.0000	1.05407
688.5000	1.15713
689.0000	1.15125
689.5000	1.04528
690.0000	0.96732
690.5000	0.933855
691.0000	0.931782
691.5000	0.900354
692.0000	0.886268
692.5000	0.897088
693.0000	0.847742
693.5000	0.877233
694.0000	0.813116
694.5000	0.831511
695.0000	0.970365
695.5000	0.845439
696.0000	0.843941
696.5000	0.835737
697.0000	0.800249
697.5000	0.815728
698.0000	0.785001
698.5000	0.789056
699.0000	0.831134
699.5000	0.806706
700.0000	0.839767

##### Extended Information
[Comments]
Sample name
Comment
User
Division
Company	UMBC

[Detailed Information]
Creation date	3/13/2020 2:32 PM

Data array type	Linear data array
Horizontal axis	Wavelength [nm]
Vertical axis	Int.
Start	415 nm
End	700 nm
Data interval	0.5 nm
Data points	571     

[Measurement Information]
Model name	FP-8200
Serial No.	C029561448
  Ex filter holder	None
  Em filter holder	None

Accessory	STR-811
Accessory S/N	A002761513

Measurement date	3/13/2020 2:32 PM

Mode	Emission
Ex bandwidth	2.5 nm
Em bandwidth	2.5 nm
Response	0.2 sec
Sensitivity	Medium
Measurement range	415 - 700 nm
Data interval	0.5 nm
Ex wavelength	400.0 nm
Scan speed	200 nm/min
Auto gain	Off
Light source	Xe lamp
Filter	Not used
Blank correction	On

