TITLE	
DATA TYPE	FLUORESCENCE SPECTRUM
ORIGIN	JASCO
OWNER	
DATE	20/03/13
TIME	14:41:12
SPECTROMETER/DATA SYSTEM	
LOCALE	1033
RESOLUTION	
DELTAX	0.5
XUNITS	NANOMETERS
YUNITS	INTENSITY
FIRSTX	  415.0000
LASTX	  700.0000
NPOINTS	     571
FIRSTY	     1.42634
MAXY	   296.98859
MINY	     0.47517
XYDATA
415.0000	1.42634
415.5000	1.45209
416.0000	1.47554
416.5000	1.47675
417.0000	1.51794
417.5000	1.60151
418.0000	1.62199
418.5000	1.65161
419.0000	1.67967
419.5000	1.68708
420.0000	1.74945
420.5000	1.8725
421.0000	1.87006
421.5000	1.88309
422.0000	1.92349
422.5000	1.90854
423.0000	2.05046
423.5000	2.03516
424.0000	1.91045
424.5000	1.91526
425.0000	2.07685
425.5000	1.99388
426.0000	2.14487
426.5000	2.27233
427.0000	2.27362
427.5000	2.15415
428.0000	2.21308
428.5000	2.21268
429.0000	2.27858
429.5000	2.29829
430.0000	2.39758
430.5000	2.41128
431.0000	2.42367
431.5000	2.57964
432.0000	2.3732
432.5000	2.61424
433.0000	2.54892
433.5000	2.63285
434.0000	2.58752
434.5000	2.70632
435.0000	2.70715
435.5000	2.77792
436.0000	2.83479
436.5000	2.71886
437.0000	2.74116
437.5000	2.87936
438.0000	3.007
438.5000	3.00771
439.0000	2.91171
439.5000	2.91207
440.0000	2.89631
440.5000	2.9274
441.0000	3.0282
441.5000	3.03034
442.0000	3.08239
442.5000	3.11574
443.0000	3.15509
443.5000	3.13813
444.0000	3.254
444.5000	3.17708
445.0000	3.29198
445.5000	3.44714
446.0000	3.38511
446.5000	3.54186
447.0000	3.48615
447.5000	3.71002
448.0000	3.80737
448.5000	3.82194
449.0000	3.76903
449.5000	3.92403
450.0000	3.58445
450.5000	3.32305
451.0000	3.28772
451.5000	3.35231
452.0000	3.46942
452.5000	3.47122
453.0000	3.33072
453.5000	3.39748
454.0000	3.73013
454.5000	3.93393
455.0000	4.12326
455.5000	4.22653
456.0000	4.37697
456.5000	4.42834
457.0000	4.54339
457.5000	4.70165
458.0000	4.79066
458.5000	4.91677
459.0000	5.00404
459.5000	5.18373
460.0000	5.32104
460.5000	5.49138
461.0000	5.65942
461.5000	5.81874
462.0000	5.8736
462.5000	6.08296
463.0000	6.30639
463.5000	6.50635
464.0000	6.94059
464.5000	7.12847
465.0000	7.30162
465.5000	7.49568
466.0000	7.95322
466.5000	8.17709
467.0000	8.4028
467.5000	8.8082
468.0000	9.45638
468.5000	9.8813
469.0000	10.3028
469.5000	10.6288
470.0000	11.3451
470.5000	11.5136
471.0000	12.117
471.5000	12.6776
472.0000	13.6834
472.5000	14.0788
473.0000	14.7463
473.5000	15.5665
474.0000	16.6271
474.5000	17.4613
475.0000	18.6535
475.5000	19.7186
476.0000	21.0097
476.5000	22.4754
477.0000	23.7375
477.5000	24.7573
478.0000	26.3055
478.5000	27.9992
479.0000	29.7341
479.5000	31.373
480.0000	33.6638
480.5000	35.8762
481.0000	38.3664
481.5000	40.5964
482.0000	43.4822
482.5000	45.2952
483.0000	48.6353
483.5000	51.6694
484.0000	54.7614
484.5000	57.7796
485.0000	61.0495
485.5000	64.7511
486.0000	68.2388
486.5000	72.5088
487.0000	76.967
487.5000	81.9819
488.0000	86.9857
488.5000	90.9267
489.0000	95.541
489.5000	100.499
490.0000	106.346
490.5000	111.428
491.0000	116.542
491.5000	122.245
492.0000	128.206
492.5000	134.003
493.0000	139.85
493.5000	146.338
494.0000	153.066
494.5000	159.566
495.0000	166.048
495.5000	173.31
496.0000	179.763
496.5000	186.301
497.0000	193.293
497.5000	201.049
498.0000	207.463
498.5000	213.036
499.0000	220.427
499.5000	227.342
500.0000	233.173
500.5000	238.992
501.0000	245.324
501.5000	251.323
502.0000	257.065
502.5000	261.533
503.0000	267.12
503.5000	271.367
504.0000	275.084
504.5000	279.132
505.0000	282.556
505.5000	286.695
506.0000	289.519
506.5000	291.849
507.0000	292.938
507.5000	294.594
508.0000	296.492
508.5000	296.989
509.0000	296.725
509.5000	295.843
510.0000	295.684
510.5000	295.005
511.0000	293.489
511.5000	291.114
512.0000	289.203
512.5000	285.112
513.0000	281.162
513.5000	278.901
514.0000	275.211
514.5000	271.232
515.0000	266.914
515.5000	261.923
516.0000	256.914
516.5000	251.108
517.0000	246.181
517.5000	242.271
518.0000	237.179
518.5000	231.447
519.0000	225.683
519.5000	219.95
520.0000	214.562
520.5000	208.752
521.0000	202.9
521.5000	196.322
522.0000	190.761
522.5000	185.235
523.0000	180.305
523.5000	174.059
524.0000	168.554
524.5000	161.514
525.0000	158.001
525.5000	152.598
526.0000	146.237
526.5000	140.678
527.0000	135.911
527.5000	131.095
528.0000	125.468
528.5000	120.519
529.0000	116.217
529.5000	111.47
530.0000	106.994
530.5000	102.509
531.0000	98.4425
531.5000	94.4445
532.0000	90.471
532.5000	86.2547
533.0000	83.0465
533.5000	79.4057
534.0000	75.7748
534.5000	73.2512
535.0000	69.4943
535.5000	65.7442
536.0000	62.6711
536.5000	59.5982
537.0000	57.4057
537.5000	55.0157
538.0000	52.427
538.5000	50.077
539.0000	48.4814
539.5000	45.7626
540.0000	43.5274
540.5000	41.8293
541.0000	40.2321
541.5000	38.4884
542.0000	36.8814
542.5000	35.2999
543.0000	33.7007
543.5000	31.8537
544.0000	30.7829
544.5000	29.6722
545.0000	28.4559
545.5000	26.9425
546.0000	25.7474
546.5000	25.2541
547.0000	24.3571
547.5000	23.033
548.0000	22.1531
548.5000	21.4862
549.0000	20.4749
549.5000	20.2227
550.0000	19.5461
550.5000	19.01
551.0000	18.1063
551.5000	17.4911
552.0000	17.0667
552.5000	16.6959
553.0000	16.0936
553.5000	15.6406
554.0000	15.3041
554.5000	14.8801
555.0000	14.4646
555.5000	13.8412
556.0000	13.4582
556.5000	13.1111
557.0000	12.8453
557.5000	12.7693
558.0000	12.3471
558.5000	12.1524
559.0000	11.9074
559.5000	11.6563
560.0000	11.5977
560.5000	10.9977
561.0000	10.8772
561.5000	10.6361
562.0000	10.4771
562.5000	10.3221
563.0000	10.0536
563.5000	9.76062
564.0000	9.96905
564.5000	9.93059
565.0000	9.45042
565.5000	9.42246
566.0000	9.45681
566.5000	9.22768
567.0000	8.96886
567.5000	8.69033
568.0000	8.46893
568.5000	8.69429
569.0000	8.5569
569.5000	8.26935
570.0000	8.22575
570.5000	8.41006
571.0000	8.09145
571.5000	8.04505
572.0000	7.97392
572.5000	7.89831
573.0000	7.75629
573.5000	7.81354
574.0000	7.7132
574.5000	7.64912
575.0000	7.6051
575.5000	7.55208
576.0000	7.42608
576.5000	7.38045
577.0000	7.38769
577.5000	7.36095
578.0000	7.24577
578.5000	7.0317
579.0000	6.9359
579.5000	6.97779
580.0000	6.84589
580.5000	6.96803
581.0000	6.78828
581.5000	6.82621
582.0000	6.94754
582.5000	6.81825
583.0000	6.65085
583.5000	6.58973
584.0000	6.56809
584.5000	6.50905
585.0000	6.54066
585.5000	6.38317
586.0000	6.39408
586.5000	6.25357
587.0000	6.25741
587.5000	6.30877
588.0000	6.32231
588.5000	6.21245
589.0000	6.17033
589.5000	6.19173
590.0000	6.15648
590.5000	6.0695
591.0000	6.07804
591.5000	6.06342
592.0000	6.1249
592.5000	5.98007
593.0000	6.16919
593.5000	6.01965
594.0000	5.93905
594.5000	6.18129
595.0000	5.8316
595.5000	5.76899
596.0000	5.82844
596.5000	5.77815
597.0000	5.82256
597.5000	5.63049
598.0000	5.6868
598.5000	5.6957
599.0000	5.65539
599.5000	5.66723
600.0000	5.65306
600.5000	5.69782
601.0000	5.56575
601.5000	5.49857
602.0000	5.46696
602.5000	5.18025
603.0000	5.19469
603.5000	5.34575
604.0000	5.06953
604.5000	5.2288
605.0000	5.22795
605.5000	5.13578
606.0000	5.18708
606.5000	5.13069
607.0000	4.96605
607.5000	4.89266
608.0000	5.05447
608.5000	5.03864
609.0000	4.92537
609.5000	5.1216
610.0000	4.88692
610.5000	4.97629
611.0000	4.76277
611.5000	4.83267
612.0000	4.73
612.5000	4.81863
613.0000	4.76198
613.5000	4.74901
614.0000	4.69975
614.5000	4.65632
615.0000	4.51962
615.5000	4.52521
616.0000	4.4972
616.5000	4.42292
617.0000	4.34592
617.5000	4.52682
618.0000	4.44875
618.5000	4.42669
619.0000	4.34406
619.5000	4.38177
620.0000	4.30353
620.5000	4.19751
621.0000	4.18863
621.5000	4.23883
622.0000	4.187
622.5000	4.08444
623.0000	4.02831
623.5000	4.07459
624.0000	3.93743
624.5000	3.96824
625.0000	3.93888
625.5000	4.06211
626.0000	3.85316
626.5000	3.80993
627.0000	3.62615
627.5000	3.72612
628.0000	3.70167
628.5000	3.58146
629.0000	3.51043
629.5000	3.55389
630.0000	3.64092
630.5000	3.5643
631.0000	3.63198
631.5000	3.4008
632.0000	3.32914
632.5000	3.36295
633.0000	3.44218
633.5000	3.32888
634.0000	3.284
634.5000	3.22737
635.0000	3.14977
635.5000	3.09763
636.0000	3.16064
636.5000	3.20504
637.0000	3.05016
637.5000	2.98052
638.0000	2.9471
638.5000	2.88056
639.0000	2.97689
639.5000	2.89374
640.0000	2.86289
640.5000	2.80788
641.0000	2.82643
641.5000	2.76149
642.0000	2.77549
642.5000	2.7856
643.0000	2.74958
643.5000	2.70484
644.0000	2.60224
644.5000	2.52338
645.0000	2.69502
645.5000	2.49387
646.0000	2.53745
646.5000	2.40678
647.0000	2.59886
647.5000	2.42338
648.0000	2.41587
648.5000	2.38707
649.0000	2.3346
649.5000	2.31868
650.0000	2.27584
650.5000	2.20908
651.0000	2.22991
651.5000	2.18252
652.0000	2.1813
652.5000	2.18327
653.0000	2.1101
653.5000	2.1379
654.0000	2.06445
654.5000	2.05935
655.0000	1.95047
655.5000	2.0131
656.0000	1.98449
656.5000	1.98926
657.0000	1.91654
657.5000	1.89172
658.0000	1.83982
658.5000	1.82935
659.0000	1.81121
659.5000	1.79148
660.0000	1.74816
660.5000	1.75599
661.0000	1.71891
661.5000	1.77958
662.0000	1.70752
662.5000	1.62652
663.0000	1.50939
663.5000	1.59532
664.0000	1.59035
664.5000	1.55594
665.0000	1.51363
665.5000	1.58573
666.0000	1.49122
666.5000	1.47334
667.0000	1.34714
667.5000	1.43876
668.0000	1.36659
668.5000	1.30381
669.0000	1.30693
669.5000	1.32672
670.0000	1.29591
670.5000	1.3152
671.0000	1.2243
671.5000	1.3948
672.0000	1.3377
672.5000	1.27252
673.0000	1.22832
673.5000	1.18451
674.0000	1.16834
674.5000	1.13529
675.0000	1.17511
675.5000	1.15927
676.0000	1.15612
676.5000	1.11122
677.0000	0.973726
677.5000	1.049
678.0000	1.04571
678.5000	0.990843
679.0000	0.997166
679.5000	0.963202
680.0000	0.949043
680.5000	0.952262
681.0000	0.910484
681.5000	0.894307
682.0000	0.909301
682.5000	0.869904
683.0000	0.923104
683.5000	0.919731
684.0000	0.9105
684.5000	0.871942
685.0000	0.729491
685.5000	0.799556
686.0000	0.806011
686.5000	0.765712
687.0000	0.67653
687.5000	0.632037
688.0000	0.706154
688.5000	0.702968
689.0000	0.685933
689.5000	0.63722
690.0000	0.661333
690.5000	0.587585
691.0000	0.568441
691.5000	0.588515
692.0000	0.603406
692.5000	0.580055
693.0000	0.584947
693.5000	0.587888
694.0000	0.52906
694.5000	0.499709
695.0000	0.698773
695.5000	0.564972
696.0000	0.554513
696.5000	0.517623
697.0000	0.547972
697.5000	0.595674
698.0000	0.590904
698.5000	0.553026
699.0000	0.532565
699.5000	0.475174
700.0000	0.502321

##### Extended Information
[Comments]
Sample name
Comment
User
Division
Company	UMBC

[Detailed Information]
Creation date	3/13/2020 2:41 PM

Data array type	Linear data array
Horizontal axis	Wavelength [nm]
Vertical axis	Int.
Start	415 nm
End	700 nm
Data interval	0.5 nm
Data points	571     

[Measurement Information]
Model name	FP-8200
Serial No.	C029561448
  Ex filter holder	None
  Em filter holder	None

Accessory	STR-811
Accessory S/N	A002761513

Measurement date	3/13/2020 2:41 PM

Mode	Emission
Ex bandwidth	2.5 nm
Em bandwidth	2.5 nm
Response	0.2 sec
Sensitivity	Medium
Measurement range	415 - 700 nm
Data interval	0.5 nm
Ex wavelength	400.0 nm
Scan speed	200 nm/min
Auto gain	Off
Light source	Xe lamp
Filter	Not used
Blank correction	On

