TITLE	
DATA TYPE	FLUORESCENCE SPECTRUM
ORIGIN	JASCO
OWNER	
DATE	20/03/13
TIME	14:51:36
SPECTROMETER/DATA SYSTEM	
LOCALE	1033
RESOLUTION	
DELTAX	0.5
XUNITS	NANOMETERS
YUNITS	INTENSITY
FIRSTX	  415.0000
LASTX	  700.0000
NPOINTS	     571
FIRSTY	     1.73455
MAXY	   270.19672
MINY	     0.42018
XYDATA
415.0000	1.73455
415.5000	1.71503
416.0000	1.77802
416.5000	1.87565
417.0000	1.86594
417.5000	1.82011
418.0000	1.8737
418.5000	1.97377
419.0000	1.98282
419.5000	1.99835
420.0000	1.99936
420.5000	1.99388
421.0000	1.92992
421.5000	1.96788
422.0000	2.0463
422.5000	2.0443
423.0000	1.97751
423.5000	1.88667
424.0000	1.90504
424.5000	1.87201
425.0000	1.96432
425.5000	2.06712
426.0000	1.97685
426.5000	1.9363
427.0000	2.18578
427.5000	2.08619
428.0000	2.11117
428.5000	2.00606
429.0000	1.99797
429.5000	1.9593
430.0000	2.14054
430.5000	2.05006
431.0000	2.08669
431.5000	2.05055
432.0000	1.97258
432.5000	1.92674
433.0000	2.06137
433.5000	2.00648
434.0000	1.99
434.5000	1.97354
435.0000	2.0303
435.5000	1.93543
436.0000	1.9173
436.5000	1.99818
437.0000	2.05524
437.5000	1.99868
438.0000	1.93729
438.5000	2.05615
439.0000	2.08528
439.5000	2.0615
440.0000	2.03948
440.5000	1.9759
441.0000	2.01286
441.5000	2.02453
442.0000	2.13733
442.5000	2.11357
443.0000	2.09878
443.5000	2.08233
444.0000	2.15074
444.5000	2.1403
445.0000	2.12418
445.5000	2.03158
446.0000	2.11062
446.5000	2.29649
447.0000	2.17801
447.5000	2.32777
448.0000	2.49176
448.5000	2.37099
449.0000	2.23892
449.5000	2.25971
450.0000	2.02099
450.5000	2.0215
451.0000	1.646
451.5000	1.76681
452.0000	1.70906
452.5000	1.89267
453.0000	1.81659
453.5000	1.77484
454.0000	1.99068
454.5000	2.20507
455.0000	2.288
455.5000	2.35933
456.0000	2.29405
456.5000	2.33767
457.0000	2.50754
457.5000	2.54924
458.0000	2.51417
458.5000	2.52876
459.0000	2.65961
459.5000	2.79663
460.0000	2.85322
460.5000	2.92249
461.0000	2.85121
461.5000	2.97638
462.0000	3.14474
462.5000	3.15434
463.0000	3.24054
463.5000	3.33805
464.0000	3.37542
464.5000	3.42766
465.0000	3.59106
465.5000	3.75667
466.0000	3.94883
466.5000	4.12128
467.0000	3.98649
467.5000	4.15421
468.0000	4.23401
468.5000	4.7039
469.0000	4.92766
469.5000	4.95991
470.0000	5.0647
470.5000	5.26398
471.0000	5.38308
471.5000	5.74656
472.0000	5.95474
472.5000	6.41353
473.0000	6.71899
473.5000	6.97891
474.0000	7.40767
474.5000	7.83596
475.0000	8.42299
475.5000	8.94768
476.0000	9.22477
476.5000	9.70821
477.0000	10.3151
477.5000	11.1271
478.0000	12.0415
478.5000	12.6214
479.0000	13.2721
479.5000	14.2565
480.0000	15.2866
480.5000	16.0588
481.0000	17.345
481.5000	18.3221
482.0000	19.6921
482.5000	20.9223
483.0000	22.3837
483.5000	23.9733
484.0000	26.0672
484.5000	27.798
485.0000	29.5896
485.5000	31.3587
486.0000	33.1635
486.5000	35.9394
487.0000	38.717
487.5000	41.238
488.0000	44.0726
488.5000	46.7897
489.0000	49.5481
489.5000	52.5476
490.0000	56.3099
490.5000	59.6288
491.0000	63.4889
491.5000	67.3506
492.0000	71.4481
492.5000	75.9008
493.0000	79.9752
493.5000	84.9901
494.0000	89.7671
494.5000	94.4434
495.0000	99.503
495.5000	104.515
496.0000	110.112
496.5000	116.087
497.0000	122.266
497.5000	128.736
498.0000	133.737
498.5000	140.017
499.0000	145.32
499.5000	151.968
500.0000	157.923
500.5000	164.59
501.0000	171.384
501.5000	178.162
502.0000	183.155
502.5000	189.593
503.0000	195.453
503.5000	200.673
504.0000	205.658
504.5000	211.608
505.0000	217.793
505.5000	223.778
506.0000	228.825
506.5000	233.682
507.0000	237.807
507.5000	242.85
508.0000	247.23
508.5000	250.612
509.0000	253.17
509.5000	257.721
510.0000	261.683
510.5000	261.544
511.0000	264.122
511.5000	265.193
512.0000	266.007
512.5000	267.653
513.0000	270.197
513.5000	268.857
514.0000	268.849
514.5000	270.091
515.0000	269.274
515.5000	268.492
516.0000	267.626
516.5000	266.302
517.0000	265.195
517.5000	263.054
518.0000	260.714
518.5000	258.317
519.0000	256.634
519.5000	253.478
520.0000	250.956
520.5000	247.717
521.0000	244.527
521.5000	241.309
522.0000	237.172
522.5000	234.14
523.0000	229.722
523.5000	225.985
524.0000	222.158
524.5000	218.984
525.0000	213.631
525.5000	209.549
526.0000	205.074
526.5000	200.221
527.0000	195.848
527.5000	191.148
528.0000	186.92
528.5000	183.553
529.0000	178.125
529.5000	172.861
530.0000	168.346
530.5000	163.853
531.0000	159.204
531.5000	155.043
532.0000	149.342
532.5000	145.137
533.0000	141.277
533.5000	136.162
534.0000	131.593
534.5000	127.212
535.0000	123.087
535.5000	118.75
536.0000	114.293
536.5000	109.39
537.0000	105.88
537.5000	101.893
538.0000	96.8291
538.5000	93.8195
539.0000	90.2899
539.5000	85.8511
540.0000	82.0452
540.5000	78.6135
541.0000	75.7008
541.5000	73.1987
542.0000	70.3053
542.5000	66.964
543.0000	64.037
543.5000	61.7164
544.0000	59.14
544.5000	56.3297
545.0000	53.0252
545.5000	50.1905
546.0000	48.613
546.5000	46.8158
547.0000	44.2452
547.5000	42.5756
548.0000	41.0758
548.5000	39.0335
549.0000	37.6206
549.5000	35.5844
550.0000	34.2294
550.5000	32.9967
551.0000	31.1663
551.5000	29.9702
552.0000	28.8321
552.5000	27.6719
553.0000	26.5737
553.5000	25.1536
554.0000	24.1127
554.5000	23.0284
555.0000	22.1336
555.5000	21.5402
556.0000	20.4543
556.5000	19.5378
557.0000	18.9018
557.5000	18.2909
558.0000	17.563
558.5000	17.05
559.0000	16.4474
559.5000	15.7774
560.0000	15.1852
560.5000	14.7562
561.0000	14.2373
561.5000	13.9873
562.0000	13.4731
562.5000	13.0427
563.0000	12.6481
563.5000	12.2077
564.0000	12.0798
564.5000	11.4541
565.0000	11.3828
565.5000	10.8804
566.0000	10.7769
566.5000	10.4168
567.0000	10.0421
567.5000	9.87025
568.0000	9.64185
568.5000	9.44934
569.0000	9.04034
569.5000	9.03936
570.0000	8.73119
570.5000	8.4984
571.0000	8.44703
571.5000	8.34925
572.0000	8.2658
572.5000	8.0122
573.0000	7.74816
573.5000	7.66379
574.0000	7.53758
574.5000	7.3655
575.0000	7.28453
575.5000	7.08871
576.0000	6.91669
576.5000	6.87271
577.0000	6.84214
577.5000	6.67079
578.0000	6.66988
578.5000	6.45192
579.0000	6.45568
579.5000	6.36356
580.0000	6.22336
580.5000	6.22157
581.0000	6.1475
581.5000	6.21655
582.0000	6.16701
582.5000	5.99641
583.0000	5.96407
583.5000	5.92141
584.0000	5.72362
584.5000	5.65255
585.0000	5.5686
585.5000	5.6534
586.0000	5.46342
586.5000	5.56663
587.0000	5.41911
587.5000	5.40655
588.0000	5.31911
588.5000	5.17868
589.0000	5.26377
589.5000	5.11887
590.0000	5.02274
590.5000	4.95708
591.0000	5.02938
591.5000	5.19064
592.0000	5.04724
592.5000	5.03899
593.0000	4.9394
593.5000	4.88127
594.0000	4.64653
594.5000	4.63748
595.0000	4.6982
595.5000	4.81998
596.0000	4.59748
596.5000	4.5821
597.0000	4.53838
597.5000	4.48773
598.0000	4.51827
598.5000	4.6138
599.0000	4.67827
599.5000	4.44654
600.0000	4.47905
600.5000	4.54885
601.0000	4.23027
601.5000	4.19581
602.0000	4.28116
602.5000	3.96427
603.0000	4.25483
603.5000	4.12535
604.0000	4.11238
604.5000	4.28388
605.0000	4.08327
605.5000	3.98718
606.0000	3.99252
606.5000	3.99358
607.0000	3.98935
607.5000	3.98304
608.0000	3.86026
608.5000	3.81116
609.0000	3.73987
609.5000	3.70427
610.0000	3.63162
610.5000	3.63727
611.0000	3.76058
611.5000	3.82972
612.0000	3.79656
612.5000	3.67789
613.0000	3.65039
613.5000	3.69226
614.0000	3.57201
614.5000	3.49505
615.0000	3.46899
615.5000	3.52645
616.0000	3.38794
616.5000	3.35526
617.0000	3.31215
617.5000	3.3988
618.0000	3.27768
618.5000	3.51598
619.0000	3.20817
619.5000	3.18778
620.0000	3.26013
620.5000	3.31863
621.0000	3.20942
621.5000	3.12246
622.0000	3.05512
622.5000	3.03545
623.0000	3.03787
623.5000	3.05612
624.0000	2.93547
624.5000	2.88936
625.0000	3.01362
625.5000	2.99805
626.0000	2.96818
626.5000	2.86162
627.0000	2.84774
627.5000	2.85252
628.0000	2.80125
628.5000	2.80652
629.0000	2.78555
629.5000	2.75951
630.0000	2.67616
630.5000	2.66456
631.0000	2.67206
631.5000	2.60999
632.0000	2.70911
632.5000	2.50058
633.0000	2.52423
633.5000	2.55028
634.0000	2.43621
634.5000	2.35221
635.0000	2.33308
635.5000	2.40885
636.0000	2.38018
636.5000	2.40328
637.0000	2.3345
637.5000	2.29094
638.0000	2.20415
638.5000	2.23239
639.0000	2.30963
639.5000	2.10156
640.0000	2.14349
640.5000	2.07661
641.0000	2.07831
641.5000	2.1407
642.0000	2.10891
642.5000	2.07688
643.0000	2.08267
643.5000	1.99632
644.0000	1.98204
644.5000	2.04283
645.0000	2.04974
645.5000	1.95322
646.0000	1.79096
646.5000	1.84613
647.0000	1.83555
647.5000	1.81117
648.0000	1.7678
648.5000	1.70129
649.0000	1.74801
649.5000	1.71273
650.0000	1.73889
650.5000	1.74055
651.0000	1.66107
651.5000	1.66072
652.0000	1.6763
652.5000	1.64303
653.0000	1.49166
653.5000	1.55948
654.0000	1.58978
654.5000	1.55972
655.0000	1.56789
655.5000	1.53796
656.0000	1.53844
656.5000	1.48616
657.0000	1.45263
657.5000	1.43099
658.0000	1.40272
658.5000	1.43252
659.0000	1.25248
659.5000	1.28631
660.0000	1.2829
660.5000	1.26608
661.0000	1.3515
661.5000	1.2962
662.0000	1.29666
662.5000	1.26631
663.0000	1.1588
663.5000	1.21386
664.0000	1.15976
664.5000	1.19767
665.0000	1.19103
665.5000	1.36722
666.0000	1.23946
666.5000	1.12465
667.0000	1.14053
667.5000	1.14146
668.0000	1.06567
668.5000	1.03183
669.0000	1.03211
669.5000	1.01323
670.0000	0.970046
670.5000	0.988876
671.0000	1.09805
671.5000	0.982779
672.0000	0.882652
672.5000	0.954647
673.0000	0.99381
673.5000	0.969586
674.0000	0.925156
674.5000	0.905987
675.0000	0.925454
675.5000	0.953255
676.0000	0.881509
676.5000	0.84347
677.0000	0.907681
677.5000	0.825028
678.0000	0.85178
678.5000	0.872723
679.0000	0.749096
679.5000	0.738169
680.0000	0.711769
680.5000	0.68488
681.0000	0.734256
681.5000	0.786992
682.0000	0.714903
682.5000	0.733319
683.0000	0.751468
683.5000	0.741683
684.0000	0.683066
684.5000	0.667269
685.0000	0.636465
685.5000	0.667103
686.0000	0.635643
686.5000	0.61753
687.0000	0.613372
687.5000	0.575579
688.0000	0.59885
688.5000	0.570201
689.0000	0.597178
689.5000	0.528396
690.0000	0.508483
690.5000	0.508389
691.0000	0.558777
691.5000	0.546019
692.0000	0.526823
692.5000	0.493711
693.0000	0.496025
693.5000	0.546102
694.0000	0.447067
694.5000	0.536958
695.0000	0.575385
695.5000	0.494245
696.0000	0.481363
696.5000	0.481398
697.0000	0.49585
697.5000	0.482529
698.0000	0.466873
698.5000	0.463255
699.0000	0.453497
699.5000	0.420177
700.0000	0.515316

##### Extended Information
[Comments]
Sample name
Comment
User
Division
Company	UMBC

[Detailed Information]
Creation date	3/13/2020 2:51 PM

Data array type	Linear data array
Horizontal axis	Wavelength [nm]
Vertical axis	Int.
Start	415 nm
End	700 nm
Data interval	0.5 nm
Data points	571     

[Measurement Information]
Model name	FP-8200
Serial No.	C029561448
  Ex filter holder	None
  Em filter holder	None

Accessory	STR-811
Accessory S/N	A002761513

Measurement date	3/13/2020 2:51 PM

Mode	Emission
Ex bandwidth	2.5 nm
Em bandwidth	2.5 nm
Response	0.2 sec
Sensitivity	Medium
Measurement range	415 - 700 nm
Data interval	0.5 nm
Ex wavelength	400.0 nm
Scan speed	200 nm/min
Auto gain	Off
Light source	Xe lamp
Filter	Not used
Blank correction	On

