TITLE	
DATA TYPE	FLUORESCENCE SPECTRUM
ORIGIN	JASCO
OWNER	
DATE	20/03/13
TIME	15:25:58
SPECTROMETER/DATA SYSTEM	
LOCALE	1033
RESOLUTION	
DELTAX	0.5
XUNITS	NANOMETERS
YUNITS	INTENSITY
FIRSTX	  415.0000
LASTX	  700.0000
NPOINTS	     571
FIRSTY	     0.83307
MAXY	   338.48245
MINY	     0.37528
XYDATA
415.0000	0.833065
415.5000	0.839048
416.0000	0.859288
416.5000	0.825677
417.0000	0.825192
417.5000	0.931614
418.0000	0.952839
418.5000	0.949861
419.0000	0.913366
419.5000	0.846295
420.0000	0.913361
420.5000	0.936173
421.0000	0.948984
421.5000	0.995757
422.0000	1.04023
422.5000	0.975298
423.0000	0.980609
423.5000	0.959224
424.0000	0.877316
424.5000	0.851304
425.0000	0.974787
425.5000	1.00329
426.0000	1.23403
426.5000	1.16458
427.0000	1.11035
427.5000	1.24194
428.0000	1.16006
428.5000	1.1897
429.0000	1.17219
429.5000	1.26645
430.0000	1.24531
430.5000	1.28565
431.0000	1.26777
431.5000	1.33213
432.0000	1.2711
432.5000	1.37347
433.0000	1.40033
433.5000	1.28576
434.0000	1.32023
434.5000	1.34078
435.0000	1.27685
435.5000	1.28714
436.0000	1.31523
436.5000	1.30876
437.0000	1.32507
437.5000	1.36378
438.0000	1.44548
438.5000	1.39028
439.0000	1.37287
439.5000	1.41581
440.0000	1.42591
440.5000	1.46817
441.0000	1.55023
441.5000	1.5141
442.0000	1.54512
442.5000	1.52918
443.0000	1.52848
443.5000	1.59325
444.0000	1.59419
444.5000	1.57302
445.0000	1.53422
445.5000	1.46209
446.0000	1.5544
446.5000	1.6718
447.0000	1.67613
447.5000	1.75881
448.0000	1.81958
448.5000	1.78119
449.0000	1.627
449.5000	1.31576
450.0000	1.24801
450.5000	1.24276
451.0000	0.944015
451.5000	1.00016
452.0000	1.09935
452.5000	1.27027
453.0000	1.25408
453.5000	1.27378
454.0000	1.45198
454.5000	1.53741
455.0000	1.73862
455.5000	1.7001
456.0000	1.82026
456.5000	1.9371
457.0000	1.89968
457.5000	1.96023
458.0000	2.07164
458.5000	2.08563
459.0000	2.13788
459.5000	2.22266
460.0000	2.16659
460.5000	2.14921
461.0000	2.1399
461.5000	2.21243
462.0000	2.23527
462.5000	2.29015
463.0000	2.42565
463.5000	2.41203
464.0000	2.50468
464.5000	2.49056
465.0000	2.5678
465.5000	2.48825
466.0000	2.67198
466.5000	2.6189
467.0000	2.79281
467.5000	2.58944
468.0000	2.79868
468.5000	2.88227
469.0000	2.89056
469.5000	3.00105
470.0000	2.90236
470.5000	2.89711
471.0000	3.0393
471.5000	3.02526
472.0000	3.02159
472.5000	3.13699
473.0000	3.09346
473.5000	3.15286
474.0000	3.23697
474.5000	3.24745
475.0000	3.33967
475.5000	3.37488
476.0000	3.42735
476.5000	3.44204
477.0000	3.45631
477.5000	3.51626
478.0000	3.52382
478.5000	3.60668
479.0000	3.54188
479.5000	3.51425
480.0000	3.66071
480.5000	3.56145
481.0000	3.67639
481.5000	3.71937
482.0000	3.76694
482.5000	3.72666
483.0000	3.75924
483.5000	3.81204
484.0000	3.57194
484.5000	3.70554
485.0000	3.80693
485.5000	3.83709
486.0000	3.85057
486.5000	3.81137
487.0000	3.65465
487.5000	3.7341
488.0000	3.67795
488.5000	3.67381
489.0000	3.72041
489.5000	3.68887
490.0000	3.58645
490.5000	3.68628
491.0000	3.72208
491.5000	3.70912
492.0000	3.65917
492.5000	3.67871
493.0000	3.80922
493.5000	3.82191
494.0000	3.83817
494.5000	3.81545
495.0000	3.6865
495.5000	3.92422
496.0000	3.88484
496.5000	4.03762
497.0000	3.93759
497.5000	4.05281
498.0000	4.05548
498.5000	4.16818
499.0000	4.13665
499.5000	4.35553
500.0000	4.45943
500.5000	4.55977
501.0000	4.73972
501.5000	4.70756
502.0000	4.99524
502.5000	5.21114
503.0000	5.46959
503.5000	5.65252
504.0000	5.92151
504.5000	6.1473
505.0000	6.39599
505.5000	6.82972
506.0000	7.25831
506.5000	7.75478
507.0000	8.28604
507.5000	8.54578
508.0000	8.99434
508.5000	9.6846
509.0000	10.2848
509.5000	11.0424
510.0000	11.5844
510.5000	12.4042
511.0000	13.5623
511.5000	14.508
512.0000	15.2561
512.5000	16.7634
513.0000	17.8099
513.5000	18.9621
514.0000	20.6286
514.5000	21.6956
515.0000	23.3504
515.5000	24.8073
516.0000	27.0786
516.5000	29.2305
517.0000	31.2008
517.5000	33.2607
518.0000	36.0896
518.5000	39.032
519.0000	41.2889
519.5000	43.4939
520.0000	46.5065
520.5000	49.9634
521.0000	52.7752
521.5000	56.2091
522.0000	59.1443
522.5000	63.4892
523.0000	67.8345
523.5000	71.2182
524.0000	75.5476
524.5000	80.7216
525.0000	84.4951
525.5000	88.8937
526.0000	93.868
526.5000	99.4563
527.0000	103.964
527.5000	108.892
528.0000	113.193
528.5000	118.313
529.0000	123.287
529.5000	128.357
530.0000	134.466
530.5000	139.964
531.0000	145.402
531.5000	151.05
532.0000	156.22
532.5000	161.224
533.0000	168.005
533.5000	173.233
534.0000	178.946
534.5000	183.53
535.0000	188.318
535.5000	194.503
536.0000	200.364
536.5000	205.231
537.0000	210.255
537.5000	216.738
538.0000	222.704
538.5000	227.265
539.0000	231.507
539.5000	237.63
540.0000	243.69
540.5000	248.061
541.0000	252.823
541.5000	258.145
542.0000	263.224
542.5000	267.164
543.0000	271.879
543.5000	276.463
544.0000	280.339
544.5000	287.011
545.0000	291.193
545.5000	295.487
546.0000	298.922
546.5000	304.21
547.0000	307.887
547.5000	311.907
548.0000	314.506
548.5000	319.724
549.0000	321.343
549.5000	325.596
550.0000	329.476
550.5000	330.235
551.0000	332.492
551.5000	335.23
552.0000	335.222
552.5000	337.055
553.0000	338.416
553.5000	337.636
554.0000	338.482
554.5000	338.312
555.0000	336.322
555.5000	334.202
556.0000	331.361
556.5000	329.553
557.0000	326.444
557.5000	323.725
558.0000	319.517
558.5000	314.701
559.0000	308.515
559.5000	303.871
560.0000	298.92
560.5000	291.229
561.0000	284.228
561.5000	278.942
562.0000	271.561
562.5000	264.092
563.0000	256.538
563.5000	248.587
564.0000	240.667
564.5000	231.645
565.0000	223.977
565.5000	216.927
566.0000	208.865
566.5000	199.552
567.0000	192.555
567.5000	185.315
568.0000	177.331
568.5000	168.718
569.0000	162.77
569.5000	155.322
570.0000	147.846
570.5000	140.827
571.0000	135.063
571.5000	128.997
572.0000	123.506
572.5000	117.825
573.0000	111.25
573.5000	105.061
574.0000	99.9671
574.5000	95.5389
575.0000	90.6874
575.5000	86.1995
576.0000	81.3742
576.5000	77.6598
577.0000	74.2702
577.5000	69.2968
578.0000	65.5302
578.5000	63.002
579.0000	59.046
579.5000	55.7946
580.0000	52.9551
580.5000	50.7613
581.0000	48.1306
581.5000	45.4956
582.0000	43.4486
582.5000	40.8544
583.0000	38.2549
583.5000	35.638
584.0000	34.5115
584.5000	32.1939
585.0000	30.6976
585.5000	28.9678
586.0000	27.7013
586.5000	26.1005
587.0000	24.8216
587.5000	23.6402
588.0000	22.4162
588.5000	21.4178
589.0000	20.2353
589.5000	19.4021
590.0000	18.406
590.5000	17.3219
591.0000	16.3767
591.5000	15.894
592.0000	15.1908
592.5000	13.9444
593.0000	13.4248
593.5000	12.9387
594.0000	12.3433
594.5000	11.8482
595.0000	10.996
595.5000	10.7522
596.0000	10.2323
596.5000	9.74186
597.0000	9.52282
597.5000	9.07091
598.0000	8.54965
598.5000	8.31257
599.0000	8.04434
599.5000	7.76887
600.0000	7.46004
600.5000	7.15877
601.0000	6.78664
601.5000	6.63815
602.0000	6.00996
602.5000	5.99912
603.0000	5.82153
603.5000	5.62589
604.0000	5.52732
604.5000	5.21867
605.0000	5.14109
605.5000	4.89835
606.0000	4.81767
606.5000	4.63122
607.0000	4.38968
607.5000	4.26442
608.0000	4.19837
608.5000	4.01364
609.0000	3.87227
609.5000	3.86377
610.0000	3.68637
610.5000	3.62368
611.0000	3.55556
611.5000	3.32115
612.0000	3.29312
612.5000	3.1906
613.0000	3.17264
613.5000	3.063
614.0000	3.04902
614.5000	3.02838
615.0000	2.80552
615.5000	2.63599
616.0000	2.63324
616.5000	2.59751
617.0000	2.5641
617.5000	2.54183
618.0000	2.36233
618.5000	2.57863
619.0000	2.40245
619.5000	2.32516
620.0000	2.30892
620.5000	2.23393
621.0000	2.13828
621.5000	2.12796
622.0000	2.02853
622.5000	1.96983
623.0000	2.02123
623.5000	1.96086
624.0000	1.94776
624.5000	1.87479
625.0000	1.86285
625.5000	1.90491
626.0000	1.80147
626.5000	1.77158
627.0000	1.73989
627.5000	1.739
628.0000	1.68064
628.5000	1.67766
629.0000	1.66814
629.5000	1.66342
630.0000	1.58551
630.5000	1.58972
631.0000	1.616
631.5000	1.59796
632.0000	1.46494
632.5000	1.42757
633.0000	1.53487
633.5000	1.41685
634.0000	1.47394
634.5000	1.41907
635.0000	1.43544
635.5000	1.40429
636.0000	1.37348
636.5000	1.33405
637.0000	1.24012
637.5000	1.22952
638.0000	1.2514
638.5000	1.26096
639.0000	1.21489
639.5000	1.22981
640.0000	1.21329
640.5000	1.21323
641.0000	1.10988
641.5000	1.07083
642.0000	1.16359
642.5000	1.21323
643.0000	1.11695
643.5000	1.07418
644.0000	1.03952
644.5000	1.0814
645.0000	1.03838
645.5000	1.02343
646.0000	1.03987
646.5000	1.01624
647.0000	1.02562
647.5000	1.10304
648.0000	0.955599
648.5000	0.974284
649.0000	0.929049
649.5000	0.962795
650.0000	0.974591
650.5000	0.928559
651.0000	0.879253
651.5000	0.876275
652.0000	0.887586
652.5000	0.866248
653.0000	0.865511
653.5000	0.898653
654.0000	0.93159
654.5000	0.923371
655.0000	0.821266
655.5000	0.823115
656.0000	0.812018
656.5000	0.832515
657.0000	0.835778
657.5000	0.820063
658.0000	0.79113
658.5000	0.796493
659.0000	0.800966
659.5000	0.77532
660.0000	0.746798
660.5000	0.734875
661.0000	0.740344
661.5000	0.766205
662.0000	0.781541
662.5000	0.762309
663.0000	0.738057
663.5000	0.757733
664.0000	0.677066
664.5000	0.694286
665.0000	0.744701
665.5000	0.776946
666.0000	0.797484
666.5000	0.677169
667.0000	0.652517
667.5000	0.696714
668.0000	0.641067
668.5000	0.662584
669.0000	0.676037
669.5000	0.647631
670.0000	0.657466
670.5000	0.634035
671.0000	0.642581
671.5000	0.592248
672.0000	0.598856
672.5000	0.619825
673.0000	0.609969
673.5000	0.591963
674.0000	0.595161
674.5000	0.610346
675.0000	0.655122
675.5000	0.639607
676.0000	0.558085
676.5000	0.544243
677.0000	0.5571
677.5000	0.572364
678.0000	0.593998
678.5000	0.55063
679.0000	0.542552
679.5000	0.507711
680.0000	0.546269
680.5000	0.587768
681.0000	0.565762
681.5000	0.54088
682.0000	0.511379
682.5000	0.537014
683.0000	0.539811
683.5000	0.530916
684.0000	0.472772
684.5000	0.528975
685.0000	0.514603
685.5000	0.508659
686.0000	0.495514
686.5000	0.479997
687.0000	0.462001
687.5000	0.469514
688.0000	0.463949
688.5000	0.480868
689.0000	0.476297
689.5000	0.384554
690.0000	0.447784
690.5000	0.438923
691.0000	0.432566
691.5000	0.427567
692.0000	0.436402
692.5000	0.430996
693.0000	0.442587
693.5000	0.436977
694.0000	0.392587
694.5000	0.394903
695.0000	0.469407
695.5000	0.448948
696.0000	0.426636
696.5000	0.433806
697.0000	0.43121
697.5000	0.422357
698.0000	0.407575
698.5000	0.375285
699.0000	0.387459
699.5000	0.427632
700.0000	0.401785

##### Extended Information
[Comments]
Sample name
Comment
User
Division
Company	UMBC

[Detailed Information]
Creation date	3/13/2020 3:25 PM

Data array type	Linear data array
Horizontal axis	Wavelength [nm]
Vertical axis	Int.
Start	415 nm
End	700 nm
Data interval	0.5 nm
Data points	571     

[Measurement Information]
Model name	FP-8200
Serial No.	C029561448
  Ex filter holder	None
  Em filter holder	None

Accessory	STR-811
Accessory S/N	A002761513

Measurement date	3/13/2020 3:25 PM

Mode	Emission
Ex bandwidth	2.5 nm
Em bandwidth	2.5 nm
Response	0.2 sec
Sensitivity	Medium
Measurement range	415 - 700 nm
Data interval	0.5 nm
Ex wavelength	400.0 nm
Scan speed	200 nm/min
Auto gain	Off
Light source	Xe lamp
Filter	Not used
Blank correction	On

